time;position;velocity;acceleration
0.0;0.12067310493214334;-0.00073505792436145;-8.827187710820303
0.01;0.12009248325704337;-0.08906087837953461;-8.857846585669257
0.02;0.11796323483236841;-0.17476156171983825;-8.72280177802344
0.03;0.11646796104443038;-0.26090597849712877;-8.55778728091684
0.04;0.11249019125625986;-0.343356256540878;-8.3731285114108
0.05;0.10892844407617007;-0.423700958361566;-7.929349590070079
0.06;0.10468763995098658;-0.5012812415904794;-7.6259239254079745
0.07;0.09932277518206255;-0.5874921123482996;-7.135717489985741
0.08;0.0927565247544733;-0.6572491280458076;-6.799332490346062
0.09;0.08645405139775446;-0.7202274575413204;-6.258787216163426
0.1;0.07905820598260958;-0.7800516228416228;-5.730291369330021
0.11;0.07023961117648095;-0.8321732720062017;-5.078366680044016
0.12;0.061481151705977614;-0.8743209384263942;-4.334819584285623
0.13;0.05291945810754849;-0.9220632871293535;-3.8009526021607476
0.14;0.04279997022321684;-0.9620612940340549;-3.0120024436291475
0.15;0.033882023626124205;-0.984730558427745;-2.369544534067153
0.16;0.023001890497073713;-1.0096864556822454;-1.5189331412707603
0.17;0.013275220485564142;-1.013149624455747;-0.8315261339933109
0.18;0.003276256077868595;-1.0163502824505999;-0.24907410574878622
0.19;-0.0059331962345433665;-1.0211558419258884;0.5808822376924452
0.2;-0.017379766289123664;-1.0072536277254243;1.3841095123857718
0.21;-0.027050346978364014;-0.9887331693492133;2.070685439849709
0.22;-0.036559267044906085;-0.9770984146482723;2.8347114213737457
0.23;-0.046678037826638236;-0.9263667679798885;3.670432178852262
0.24;-0.05592552723996678;-0.901361605228174;4.196420801268893
0.25;-0.06492393943005251;-0.851838376471467;4.804209066556584
0.26;-0.07281745735914776;-0.7992805342422312;5.463148676629019
0.27;-0.08037479688238743;-0.7485765002776688;6.020802429808502
0.28;-0.08811552918909321;-0.684881664059497;6.478154389364372
0.29;-0.09338147316681449;-0.6058611514972406;7.034512690549528
0.3;-0.09973556540025409;-0.5441817655243976;7.492404243124764
0.31;-0.10481409889639552;-0.46479979343769834;7.942270092354752
0.32;-0.10905617230363475;-0.3820302625248365;8.146098603700507
0.33;-0.11203277977964357;-0.30859222425535393;8.41187034490362
0.34;-0.11509081115981627;-0.2199399020579567;8.451022243358842
0.35000000000000003;-0.11716679377611064;-0.13518865707014396;8.67887816936673
0.36;-0.11783575837250372;-0.03633345939227377;8.832255467455866
0.37;-0.11814999296909415;0.04143881367780132;8.69464928489173
0.38;-0.11620822050847332;0.12291202848683053;8.609515238956307
0.39;-0.11531244154853564;0.20589955027647575;8.55958715656692
0.4;-0.11201099472917404;0.2910906501103819;8.251666004391387
0.41000000000000003;-0.10923895195453776;0.3812500850617314;8.104891970630664
0.42;-0.10525417407401054;0.4571918042952664;7.6801305308031695
0.43;-0.10031222985731203;0.5323785385064554;7.275727174707779
0.44;-0.09480715340945868;0.6135638494906618;6.982328630677646
0.45;-0.08772344207605177;0.6686033237070502;6.519391405916632
0.46;-0.08121116842331189;0.7323162183289268;5.926805298856591
0.47000000000000003;-0.07242053889793534;0.7851400346709073;5.300420882329547
0.48;-0.06498366738801463;0.8414987191117019;4.639601996941634
0.49;-0.05492639092556188;0.8838311614443617;3.9653871758920642
0.5;-0.04726520659988716;0.9237143068412553;3.4178680972938738
0.51;-0.03867906011950678;0.951786221583857;2.7552010113107186
0.52;-0.027895932193680074;0.9754087698319818;2.036305842856597
0.53;-0.019163366030997917;0.9888027766573613;1.2403538793012983
0.54;-0.008411672626366086;1.0063013175313935;0.5841856308309674
0.55;0.0013335964274742962;0.9954115385005667;-0.26693767197706386
0.56;0.011272562859409429;0.9946891987754121;-0.8814320693759728
0.5700000000000001;0.022234990146636966;0.9859854081228049;-1.730863937575663
0.58;0.03132690187160912;0.9525355954195183;-2.433727779620456
0.59;0.040064831656316705;0.9317073262425382;-3.125861822030554
0.6;0.04946104043796981;0.9016583831134574;-3.7743544780835463
0.61;0.05901706608289987;0.8568927892623355;-4.406589221953774
0.62;0.06755046947854937;0.8129797411211589;-5.0723681502980105
0.63;0.07466222164987903;0.7601851670998221;-5.655044655742633
0.64;0.08247180017452177;0.7008712467655489;-6.092153096387141
0.65;0.08785121428982354;0.6303129548457604;-6.607903663411338
0.66;0.09624971092660217;0.5661097381473809;-6.976534939900618
0.67;0.09978098264745294;0.49446830437816136;-7.4588758519833425
0.68;0.10509243518660809;0.41910026100607267;-7.702915381183045
0.6900000000000001;0.10814542155778673;0.338118500734913;-8.049715336529832
0.7000000000000001;0.11128700320510401;0.25448508100274436;-8.258288153241608
0.71;0.11343063119544868;0.17525909468068288;-8.538969085422707
0.72;0.11606024801498828;0.08643529006333386;-8.529414218480394
0.73;0.11531332046802727;-0.0015723657104902656;-8.569236960716227
0.74;0.11448612055285898;-0.087961986508835;-8.439673901638574
0.75;0.11346338762148013;-0.16057577211239393;-8.494395779753452
0.76;0.11156297259165;-0.2424237898926166;-8.255968150981847
0.77;0.10990888479930566;-0.3282312603769436;-7.989527426018062
0.78;0.10452200210043396;-0.41521315070384884;-7.749352298678649
0.79;0.10086368001872459;-0.49057277753972284;-7.42987787126446
0.8;0.09444295906878841;-0.5561919708908101;-7.033842320143291
0.81;0.09015605893506429;-0.6190234632196553;-6.57534518174883
0.8200000000000001;0.08321259080272568;-0.6913723479809007;-6.097138183191135
0.8300000000000001;0.07469372230465228;-0.7489947006249446;-5.537024880034708
0.84;0.06904126330986254;-0.802434523091422;-4.878110535864285
0.85;0.05978100832826402;-0.8523077460985485;-4.350702155609471
0.86;0.0511384053980152;-0.8944874492430577;-3.5888052981472565
0.87;0.04203144223220959;-0.9265085409435142;-2.967680863802324
0.88;0.03204422252234992;-0.94211985225957;-2.307368056729413
0.89;0.023200899093069428;-0.9721620622412244;-1.5622891281514937
0.9;0.013186145292860748;-0.9699654598250835;-0.856486300366026
0.91;0.0029548974470948687;-0.9864233432225339;-0.25517255117136356
0.92;-0.007297657376686621;-0.9888796892853592;0.5264544728972405
0.93;-0.015922318974886378;-0.969710015959174;1.22410012840111
0.9400000000000001;-0.02722913635648333;-0.9570842822454323;2.113463158882867
0.9500000000000001;-0.03466079547244013;-0.9331925763532427;2.681590353776319
0.96;-0.04475495387478687;-0.8931017088138425;3.4648050249842783
0.97;-0.052275154325935234;-0.8641639106312244;3.9890339267028327
0.98;-0.06055389598206402;-0.816462240993031;4.579051830170986
0.99;-0.06960897645488409;-0.7693019734311854;5.211086287342725
1.0;-0.07689177084369835;-0.721209591878589;5.75872952754579
1.01;-0.08390700636269931;-0.6530507214308446;6.3211043939976
1.02;-0.08992029500446216;-0.5930333695966234;6.724482324955971
1.03;-0.09597830499725896;-0.5154428100055957;7.133324686406899
1.04;-0.10052840347283687;-0.45337770230819363;7.4201480877895705
1.05;-0.10416703776718327;-0.3723057475544438;7.8494485499696625
1.06;-0.10846624578757208;-0.29663828736376213;8.019124890713014
1.07;-0.11105437030243782;-0.21031515339349965;8.182747583105321
1.08;-0.11145463079011755;-0.13939198895060834;8.283111076995903
1.09;-0.11359546369264956;-0.0468368262421505;8.417981974992923
1.1;-0.1127632220121314;0.04468995523730454;8.238892395579892
1.11;-0.11217049522695986;0.11743630274898878;8.242432104470609
1.12;-0.11043206536721174;0.20490151457541675;8.292304213680728
1.1300000000000001;-0.10827335228344448;0.2799317121649404;7.927090634535835
1.1400000000000001;-0.10501814207124457;0.35747856607727385;7.842809045880564
1.1500000000000001;-0.10144345024968543;0.4408418220913129;7.535081322197964
1.16;-0.09524641174368444;0.5083930879935177;7.125390771044665
1.17;-0.09053181027002667;0.5758888259277702;6.698811823850983
1.18;-0.08574609651794077;0.6391891298973855;6.276581942172615
1.19;-0.07767719244262701;0.7110311864879906;5.740650375144673
1.2;-0.07102304859836474;0.7502405841122155;5.150384690330958
1.21;-0.06314098986927189;0.8129151967151543;4.588910157837074
1.22;-0.05410241949144855;0.8443048383290697;4.0080275871481605
1.23;-0.04630648080098055;0.8771873909196302;3.2050648281102614
1.24;-0.0368411723873017;0.9202097435950788;2.710987258419894
1.25;-0.02803622364383661;0.9384627475558959;1.9716255091577137
1.26;-0.01764420295571528;0.9544063373531309;1.185910962294862
1.27;-0.007975265217895976;0.961554377896737;0.4799687882747569
1.28;0.0014800061627463995;0.9639554491176563;-0.22328945228608404
1.29;0.010654942737203327;0.9591258144922147;-0.8857169821504872
1.3;0.019942884567118548;0.9430788229341555;-1.653400558684308
1.31;0.030601913645209547;0.922448320307451;-2.371440978243514
1.32;0.03899687320673771;0.9039503983270468;-2.9986453882974615
1.33;0.047717474834801404;0.8704236798548712;-3.660958346853901
1.34;0.05561637764481159;0.8315297512885234;-4.247152792610589
1.35;0.06474973636660519;0.7816236026917066;-4.813608220984303
1.36;0.07262414025095561;0.7249007923703302;-5.403912785768816
1.37;0.0789430754794506;0.6739047754585428;-5.85869769540115
1.3800000000000001;0.08509158170201596;0.620371008674405;-6.397897402342152
1.3900000000000001;0.09165176805998354;0.5534932919062732;-6.628004553470126
1.4000000000000001;0.09696477452151667;0.48063289950707627;-7.165458327622013
1.41;0.10181245242791319;0.39912023303018407;-7.470843697214231
1.42;0.10477863782044543;0.32653063443608354;-7.700455834564613
1.43;0.10653640630733237;0.24434564070308729;-7.9102411701561826
1.44;0.10868503450724895;0.16510819305219004;-8.16155249852131
1.45;0.10953502103610208;0.08554442953209877;-8.177911253893518
1.46;0.1116593246210986;0.005287889287041347;-8.298534772147736
1.47;0.11061889489392224;-0.08206860585352392;-8.137785944915112
1.48;0.1093360565600827;-0.16020622390071862;-7.962324229271205
1.49;0.10707987501281824;-0.22705717345470117;-7.914539328647424
1.5;0.10512251784226619;-0.3151198440548443;-7.829076547661488
1.51;0.10075349386869194;-0.387030879523544;-7.570773967478814
1.52;0.09693214158345856;-0.4676905941978299;-7.189233021251859
1.53;0.0929199774380549;-0.5366659137063526;-6.799541005269877
1.54;0.08539551033521174;-0.6013475517568607;-6.306985071563987
1.55;0.07941775931403192;-0.6676516046585161;-5.842792952146472
1.56;0.07269641963816575;-0.7154796244904643;-5.303678344476902
1.57;0.06653802561943765;-0.7719281824143438;-4.894398631343019
1.58;0.05824323248441763;-0.8098003298844892;-4.204803563568761
1.59;0.049658698548379815;-0.8562941983107989;-3.5382130891073684
1.6;0.04053536968258957;-0.8802555531068872;-2.916198249110848
1.61;0.03196351486624077;-0.9140798714877021;-2.1881344631717132
1.62;0.02354064735431946;-0.9383223929111442;-1.6119737474132936
1.6300000000000001;0.012462173784171455;-0.9408252089702656;-0.7751157714244227
1.6400000000000001;0.003630352072343015;-0.9467392360374918;-0.1732242622774748
1.6500000000000001;-0.005426558909223598;-0.9485692031876014;0.6366640192158727
1.6600000000000001;-0.015503866261676394;-0.9300240672816588;1.2573897585060465
1.67;-0.02401121128580435;-0.9201706816432557;1.9947244502465253
1.68;-0.03397850763203338;-0.8975662466093692;2.6204222701936772
1.69;-0.0426970901812889;-0.864575261317199;3.319935101582509
1.7;-0.05048230743854104;-0.8338378734240419;3.9339482721278
1.71;-0.059005945849247135;-0.7950336025306122;4.517735996509956
1.72;-0.06648530551749547;-0.7405547980912578;5.045277970422443
1.73;-0.07375786951574242;-0.6937727453593387;5.50053731760846
1.74;-0.08051890195898226;-0.6443644920684481;6.002780740542821
1.75;-0.0857779092575311;-0.5742257999114283;6.335300814967088
1.76;-0.09174700092088843;-0.511174579997831;6.692631966436565
1.77;-0.09698356419629806;-0.4295261224462554;7.091689555097511
1.78;-0.10107123419234196;-0.35983564622202213;7.461049374936168
1.79;-0.10465808950876876;-0.28958646753014816;7.775224046891332
1.8;-0.10694247444302978;-0.19894857620800685;7.884568177100335
1.81;-0.10836075566600081;-0.11996453203122061;8.055937242425982
1.82;-0.10954001616748074;-0.047116023101479144;8.052152653909896
1.83;-0.10924560271102349;0.03507253416792344;8.04878887310796
1.84;-0.10840535081449246;0.11539479505738882;7.91411217268486
1.85;-0.1065406386287056;0.19410321358274504;7.820981695384873
1.86;-0.10400247390064284;0.2731244671372169;7.7445969357119555
1.87;-0.10255923559384444;0.34374420738258815;7.552840961739558
1.8800000000000001;-0.09780170469024477;0.41583852864734144;7.22025868095869
1.8900000000000001;-0.09292989184746804;0.4926754180556494;6.85685189341691
1.9000000000000001;-0.08684068923761853;0.5597789477977368;6.48630085882552
1.9100000000000001;-0.08120169469066;0.6118964401072993;5.953761754973101
1.92;-0.07465165636944653;0.6818468923064891;5.469640849123064
1.93;-0.06835404530916654;0.7323923091102196;4.955106371049253
1.94;-0.06081667350437608;0.7668561254918652;4.412865577731981
1.95;-0.052776691985374;0.8204154306242988;3.880375789424558
1.96;-0.04391348794062386;0.8634968502825441;3.153911170201411
1.97;-0.03591821674788443;0.8722132407288959;2.641089494462308
1.98;-0.026879690219658924;0.9064092422815472;1.937760684959545
1.99;-0.017750314086048217;0.9240557045274631;1.2193915445731696
2.0;-0.007799098077650098;0.9168824565019614;0.4620053695619354
2.0100000000000002;0.0008782592859565816;0.9260220727007465;-0.16348059101596213
2.02;0.009847546027533896;0.926264108217014;-0.8172527015852474
2.0300000000000002;0.019349577920351402;0.9127429630950595;-1.4753543681668817
2.04;0.02878787677859387;0.8910232992799249;-2.1358726453329266
2.05;0.03800064609080413;0.8680219797426982;-2.8403630602630825
2.06;0.04501594711817112;0.843759782616637;-3.4178639966352495
2.07;0.05333433205350037;0.8015450644426704;-4.079197888958468
2.08;0.060784819515385884;0.7634393782896056;-4.613522025953459
2.09;0.06804090575210461;0.7087147358215792;-5.1611355996633534
2.1;0.07582171657193516;0.6575147395087737;-5.645800814005084
2.11;0.08203239862988079;0.5969284056816453;-6.070941779513974
2.12;0.08725740002921992;0.5344518458023167;-6.463780299745589
2.13;0.0925523340477828;0.4692793245564729;-6.982899416063163
2.14;0.09734161822948724;0.40012845618249365;-7.1590346985105855
2.15;0.10100543074057527;0.32309588370250736;-7.4123945002987
2.16;0.10274647207017717;0.2285058777698913;-7.78598570965451
2.17;0.10422639304391548;0.16684393723260219;-7.8586991682809435
2.18;0.10716394916833019;0.08683077382700231;-7.90290445150753
2.19;0.1075091094388089;0.014718762176498118;-7.9616220184107
2.2;0.10764334636317933;-0.059703474027182284;-7.843899520709422
2.21;0.10559433387314451;-0.14237738278186113;-7.772798275629274
2.22;0.10463105350568129;-0.23154260571195456;-7.653218195665982
2.23;0.10204287995619507;-0.31064574341367174;-7.476083296508048
2.24;0.09814629368168695;-0.3856794850914196;-7.271410527199833
2.25;0.09395071509787362;-0.45160590075488677;-7.000287457572735
2.2600000000000002;0.08923190867522883;-0.5146911214607783;-6.534096717426345
2.27;0.08448964670187636;-0.5784227894171007;-6.144821677679862
2.2800000000000002;0.07717111819296285;-0.6423503436428484;-5.665076831194842
2.29;0.07028571332030951;-0.692409704341832;-5.192840134933083
2.3000000000000003;0.06369923043666416;-0.7405125185448304;-4.685726371584362
2.31;0.05447020636809383;-0.7872905254127607;-4.1140822009096
2.32;0.04835667995864162;-0.8208135726289862;-3.4728248929311074
2.33;0.03942439073251135;-0.8533379067511025;-2.76913759369057
2.34;0.031370715299910874;-0.8795480705133751;-2.2289406828162788
2.35;0.02190830140138673;-0.8950547685347253;-1.4947101904939752
2.36;0.01221012989095013;-0.901231165049465;-0.8456877551681266
2.37;0.00442588228000054;-0.9078631029399511;-0.13842413106523593
2.38;-0.004308862249712534;-0.9128248867450324;0.4294799843414166
2.39;-0.014349592855518765;-0.894657523521667;1.1726947143609534
2.4;-0.0236172409348579;-0.8934678572656827;1.963480575446556
2.41;-0.03210182866299126;-0.866835805319535;2.450953478574811
2.42;-0.03977287496804426;-0.8413023788409357;3.1492112846262783
2.43;-0.048964547067734045;-0.8073352533490475;3.7828098132633285
2.44;-0.05658025771687821;-0.7616827391776857;4.372306417898161
2.45;-0.06346881318720224;-0.7225537577611115;4.961401257686994
2.46;-0.07076202898931294;-0.6829156835783341;5.28282446222731
2.47;-0.07807987033730762;-0.6167050861259805;5.778941623992617
2.48;-0.08279272624340048;-0.5439653635023463;6.192065914573301
2.49;-0.08892011743413429;-0.4896750025494745;6.6037302990955125
2.5;-0.09308214191504122;-0.4134461955482991;6.9583301981506755
2.5100000000000002;-0.09761192216513209;-0.35455960960895117;7.247209008121286
2.52;-0.09969165592120591;-0.28705832325206443;7.4324496221357235
2.5300000000000002;-0.10351872233485636;-0.20117406471377125;7.552524086324808
2.54;-0.10414386293386135;-0.1292741332698804;7.733025749583808
2.5500000000000003;-0.10481701567901171;-0.05200222604681308;7.835795625573678
2.56;-0.1046120126517468;0.0368434806680006;7.75748563296805
2.57;-0.10431941856114765;0.10201577670844865;7.778121815554768
2.58;-0.10316868223663966;0.19149384317618373;7.675483923283382
2.59;-0.10109986577612097;0.2498885818188624;7.5030213376632116
2.6;-0.09755846326697688;0.33243782879879835;7.267278903885811
2.61;-0.09517102665889733;0.3936581827830533;6.997700536980946
2.62;-0.08946059267087024;0.4628476345831859;6.662565793351256
2.63;-0.08541476276244656;0.5424085724435936;6.220099249918989
2.64;-0.07873127027586845;0.5999260732135123;5.835830766249387
2.65;-0.07262829707875468;0.6481564741670695;5.3161362151151295
2.66;-0.06587710266147863;0.7041979135993948;4.77731863292951
2.67;-0.05874547360372974;0.7512519710275303;4.2740322953966245
2.68;-0.051691831117698164;0.7896553137417581;3.7173205759303882
2.69;-0.0428783733537504;0.8233899984576593;3.1327787803750504
2.7;-0.035340849964562514;0.8527017653537917;2.52981224486863
2.71;-0.025894181823764083;0.8808296810605502;1.8238542469143222
2.72;-0.01772661289918768;0.8855883906377838;1.2054295434114575
2.73;-0.008336719733851337;0.9056778912960739;0.5528351481651962
2.74;0.0012091050428139336;0.9067124611995602;-0.2276302434706015
2.75;0.008521230766326389;0.8945955259231833;-0.8885471561083587
2.7600000000000002;0.01750520093390869;0.8931912971690212;-1.3647995301095106
2.77;0.027339111161981004;0.8678306309963876;-2.1003521521388078
2.7800000000000002;0.03530657629968865;0.838139807721722;-2.7332485002986324
2.79;0.0435054946966138;0.8098811054275188;-3.3582636520304634
2.8000000000000003;0.05260773500176043;0.7727505819693973;-3.8525169105574832
2.81;0.05878011977595163;0.7377440561759042;-4.489653567702907
2.82;0.0669671908119991;0.6890218720687484;-5.011718259387214
2.83;0.07261332597233454;0.6384650844922798;-5.427683009690589
2.84;0.07855272256526372;0.5787002825029245;-5.804810968856025
2.85;0.08500512167950357;0.5161816608948663;-6.306097415262123
2.86;0.08967969621202383;0.44552137364356925;-6.706915200364768
2.87;0.09380210641301596;0.3817506050972129;-6.93196656367291
2.88;0.09658571156786841;0.3145638107483922;-7.331149607311203
2.89;0.09966967744394878;0.23073863201714445;-7.427639808068488
2.9;0.10274231384919336;0.16547687043038736;-7.474136279127699
2.91;0.10217544468059603;0.08789090960740056;-7.666810504121687
2.92;0.10454950721734002;0.01971523475237247;-7.649031758775037
2.93;0.10318049031172881;-0.05690073561507486;-7.7139041062182985
2.94;0.10148093252315507;-0.13622792345537296;-7.6517241892393715
2.95;0.10128346496674336;-0.21028255903759122;-7.418345300383587
2.96;0.09801892621178374;-0.2898587858394592;-7.3166035156782385
2.97;0.0952608668428317;-0.35494502877003703;-6.99727198293873
2.98;0.09009878361107602;-0.42656010365788416;-6.685972860404837
2.99;0.08609572552835841;-0.48395065859544983;-6.326593152172579
3.0;0.08151582106239828;-0.5523709655558773;-5.970115458846947
3.0100000000000002;0.07467472219269887;-0.6114343186975845;-5.501050590695025
3.02;0.06856927102947649;-0.6647006777630878;-5.012269421417166
3.0300000000000002;0.06083075056512876;-0.7053693118175939;-4.444295209673472
