time;position;velocity;acceleration
0.0;0.0993759091371332;-0.003904136160941769;-7.434670862086002
0.01;0.09903903879947339;-0.07833274605269079;-7.359131593601379
0.02;0.09877355198342079;-0.15027895342423905;-7.287164754805383
0.03;0.09774084657359286;-0.21702529846229468;-7.142469494822238
0.04;0.09458265643458151;-0.2901215680535131;-7.004288030365345
0.05;0.0903770771802611;-0.36820777877040384;-6.723231223479967
0.06;0.0865391536665435;-0.41850517499852935;-6.289596493653391
0.07;0.08208522303247266;-0.4931083523548803;-6.0146512351020895
0.08;0.07718352214739321;-0.5498751764533433;-5.683080562376999
0.09;0.07007538864630725;-0.6043915541873128;-5.235223579149691
0.1;0.06523642555742046;-0.6454705055832486;-4.6708144771300795
0.11;0.0588029239372548;-0.6907280082590228;-4.059738998330551
0.12;0.05143561887385631;-0.7345969305507156;-3.6249062104874907
0.13;0.04330111927506409;-0.7660482772559587;-3.1344878376128302
0.14;0.036619280303936984;-0.7984172549812176;-2.4602053338871315
0.15;0.02772267194527492;-0.8240701504121825;-1.9432965513152505
0.16;0.019902201093940166;-0.8361473351724622;-1.2713459261533475
0.17;0.011741121371673439;-0.843729510656237;-0.6959000832022798
0.18;0.002935331231250274;-0.844540151454713;-0.13063574548939294
0.19;-0.005280287148555657;-0.8437318417192199;0.5686933294098868
0.2;-0.014197594561584773;-0.8426205636099238;1.1504098847181663
0.21;-0.02223944727456939;-0.8148379141303878;1.6842960009843964
0.22;-0.03058421309600859;-0.7973485760137164;2.392357261321378
0.23;-0.03777028746557996;-0.7720329499268752;3.0241450347814522
0.24;-0.04517487148777327;-0.7397409208116965;3.4793212941754765
0.25;-0.052236906362921255;-0.6954202284806122;4.115227196824294
0.26;-0.05930500306902001;-0.664837683376458;4.524817763620224
0.27;-0.06680486254749073;-0.6117327259845734;4.982009727663312
0.28;-0.07109569343455038;-0.5595373840804962;5.338352085820785
0.29;-0.07706159250789997;-0.49739222692050233;5.828832973754375
0.3;-0.08136180862589228;-0.440900605303829;6.173964171488979
0.31;-0.0858734240237165;-0.37641848345176127;6.313513857640386
0.32;-0.08890859185394494;-0.3080225044582149;6.517430860955801
0.33;-0.09270844548396374;-0.24269561332920794;6.85675183097823
0.34;-0.09426820365388099;-0.1712792637326965;7.097233740852467
0.35000000000000003;-0.09575276977715148;-0.10560786028494865;7.145204996956548
0.36;-0.09672151862263609;-0.03165780039475151;7.235104657259031
0.37;-0.09653477538576344;0.036876088677012156;7.1168456463116145
0.38;-0.09609443750216606;0.10318773014437146;7.087642865043356
0.39;-0.0954207216840686;0.17939895282858387;7.088339740483325
0.4;-0.09214991920661869;0.24377484758810486;6.887120862318208
0.41000000000000003;-0.09011863305194312;0.30886317385115325;6.6547907307902925
0.42;-0.08619977648397747;0.3827207436815278;6.321997384105476
0.43;-0.08234268800414828;0.4351714455337103;5.975047216529463
0.44;-0.07757622707138204;0.49861722003113185;5.615492723243411
0.45;-0.07295145017758105;0.5616719994999817;5.229527223007021
0.46;-0.06742507020762224;0.6086344781510649;4.733127837023009
0.47000000000000003;-0.06003198220797006;0.6426452863212937;4.3555541471612695
0.48;-0.054282717135602565;0.6867671277909366;3.7974758270891282
0.49;-0.04691347529134484;0.7248952300548532;3.206645728972317
0.5;-0.03965350595120564;0.7581915227787304;2.7156213383436874
0.51;-0.03130169410218876;0.7919675100741134;2.1860382365087134
0.52;-0.02387142200980647;0.7969776362845855;1.5048458466193642
0.53;-0.015337923734211967;0.8056621567008833;0.985284695337237
0.54;-0.0076360015067553095;0.8262519878136442;0.3619576060386398
0.55;0.0014949885462032326;0.8251920617761576;-0.18524981138294425
0.56;0.008249259469247086;0.8127532142260921;-0.9517714666443432
0.5700000000000001;0.016873786895781655;0.8029932877080017;-1.4537223747003913
0.58;0.024560195284684956;0.7886542300623118;-1.9593163445706938
0.59;0.03336721928718673;0.7569528133364591;-2.5814436294861784
0.6;0.040266332242778875;0.735622771142582;-3.207658849744601
0.61;0.04750784622446262;0.6973843493669102;-3.6752755626621165
0.62;0.054715960241595835;0.6709860529362635;-4.0823488691617165
0.63;0.06024518892147553;0.618253908557787;-4.64384762790817
0.64;0.06671595453442497;0.565658127565651;-5.030895520901726
0.65;0.07291258656653095;0.5136706147538873;-5.309924765918688
0.66;0.07749016044686997;0.47039920457032786;-5.767316342359418
0.67;0.08136333359803058;0.4049224267653469;-5.998360695458125
0.68;0.08547535632757423;0.32656588202916537;-6.306347431963526
0.6900000000000001;0.08924201521955284;0.2734150845046146;-6.559041287589473
0.7000000000000001;0.09043787340750267;0.21184249492050417;-6.807272840917885
0.71;0.09252281158717816;0.14019151445140965;-6.830715706344419
0.72;0.09335762607705217;0.07400556717618156;-6.871008071957891
0.73;0.09380026901164672;0.009979301695934785;-6.984501334149055
0.74;0.09325369398694265;-0.06092343401053006;-6.954663687080684
0.75;0.09288403834105195;-0.1313019358910964;-6.914195583950363
0.76;0.09120879222816712;-0.2035126881941632;-6.691857339785112
0.77;0.08767749939049396;-0.26757319710523747;-6.478153277965931
0.78;0.08538760002493878;-0.33780297403101117;-6.328130271624252
0.79;0.08224420859372358;-0.3966567223647768;-6.0522815935247305
0.8;0.07829150070160147;-0.4556948671217578;-5.655974008853605
0.81;0.07215898288651995;-0.5154680907009952;-5.21626523453128
0.8200000000000001;0.06762636160712714;-0.5555989469762891;-4.908279000746252
0.8300000000000001;0.061667772244933534;-0.6013107952197432;-4.3980926130425555
0.84;0.053901786099491936;-0.6483511822868518;-3.967120982035491
0.85;0.04809817888084626;-0.6872098077040835;-3.439621903072805
0.86;0.042078025002318276;-0.7147196989305838;-3.0246139996510646
0.87;0.03410091839876785;-0.7538868131402421;-2.461344684552146
0.88;0.02718667833065573;-0.7654930591775262;-1.8289316660805663
0.89;0.01885497265543119;-0.7867819489695411;-1.278735326330876
0.9;0.011388493477463839;-0.7924569773757482;-0.7136114873010011
0.91;0.0028513118750880047;-0.7944092332518224;-0.038716458241495895
0.92;-0.004333533588049995;-0.7937709275776719;0.5881222007467172
0.93;-0.012659962778859488;-0.7842890009292112;1.0575217456165313
0.9400000000000001;-0.01941865250578947;-0.7801934053832182;1.6478310401938712
0.9500000000000001;-0.027682161944308014;-0.748579496598003;2.135747496495289
0.96;-0.03666639943035988;-0.7205357735514955;2.817377262983816
0.97;-0.042894709684253504;-0.6927880848094397;3.224991090783988
0.98;-0.049854639863482174;-0.6659159195757426;3.7439103611857387
0.99;-0.056041014625291055;-0.6183946624970247;4.223059319262054
1.0;-0.06302355574618264;-0.5766406903174667;4.601527315785613
1.01;-0.06774635794031539;-0.5269951802771193;5.12437663250199
1.02;-0.07250033032957119;-0.4750127307972058;5.336387385447055
1.03;-0.07678122482177399;-0.4195328725128555;5.703642847974757
1.04;-0.08058559265960498;-0.36990246684999556;6.008752065054588
1.05;-0.08395235196067306;-0.2960913484541676;6.238261056665266
1.06;-0.08660955456051524;-0.23207095626046004;6.494883540468419
1.07;-0.08823667328622876;-0.1697947067601487;6.572094003809024
1.08;-0.090697697280978;-0.10356962440245683;6.678886491634491
1.09;-0.09149405296207477;-0.04523690180470863;6.720672743061939
1.1;-0.09113960507832569;0.03140805870417982;6.662667809343123
1.11;-0.08949154778149791;0.09743104680973619;6.7017547486855475
1.12;-0.0889397238979339;0.1600622089247437;6.604660658382096
1.1300000000000001;-0.08743633104462767;0.21739936334118692;6.369206417715975
1.1400000000000001;-0.08544429854515147;0.28881164474961246;6.2534411997089965
1.1500000000000001;-0.0808255318587015;0.34601290930255707;5.959551075222278
1.16;-0.07690133468264229;0.40956910371012784;5.69202257733338
1.17;-0.07199626155611678;0.4649358449877699;5.29812238371118
1.18;-0.06759113273732723;0.5210642331541585;5.0486061801817
1.19;-0.062239234587472894;0.5706537081730813;4.615987291936614
1.2;-0.056984680703255526;0.6082283832889012;4.087800830528601
1.21;-0.05137836310862343;0.6491314978966225;3.6224529939348047
1.22;-0.04357166701019993;0.6769124859691229;3.1157151009893886
1.23;-0.0359293612118681;0.7104614396455718;2.5599751431121667
1.24;-0.029284775056428063;0.7304671344768021;2.095236807992909
1.25;-0.022600537688810728;0.749786117638292;1.5796828643086331
1.26;-0.01560418543684616;0.7686051803688678;0.903104268392694
1.27;-0.0067146520032977195;0.7769945909787943;0.2842122746809536
1.28;0.0003599267912120274;0.7641897029108738;-0.1981903987749329
1.29;0.008192384915438219;0.7695525723952672;-0.8383572870132685
1.3;0.015411163253759368;0.747582044161279;-1.3501172607609644
1.31;0.023249265668987155;0.7431717771795834;-1.8242788603272722
1.32;0.029937814360852324;0.7106910987170756;-2.5083466085354442
1.33;0.03820661640933814;0.6859766785718578;-2.9263818456169455
1.34;0.044104300468155895;0.6602825205594747;-3.4032244921434898
1.35;0.05146355210194036;0.6280134373075029;-3.764401054264955
1.36;0.05640007559362855;0.5888430329648513;-4.254038195920577
1.37;0.062383241487248574;0.5369291577652977;-4.71121117142564
1.3800000000000001;0.0681271068817965;0.48995184478753023;-5.041115146258199
1.3900000000000001;0.07329506362323261;0.4345588351040022;-5.437050067224115
1.4000000000000001;0.07687155445825972;0.3794490352556521;-5.661541214729912
1.41;0.08022174894636024;0.32456961897306713;-5.960330353326784
1.42;0.08323910877160938;0.2685568801149754;-6.142841754625882
1.43;0.08501448950689112;0.20359145950357035;-6.300090411589297
1.44;0.0862495141533756;0.1386320091327259;-6.470409714305993
1.45;0.0877575948947364;0.07534634226088338;-6.420201529706728
1.46;0.08718992904284054;0.007440359574755092;-6.593416014472411
1.47;0.08820549797946486;-0.062155289619632244;-6.517729156655666
1.48;0.08680486914028424;-0.12721537437229943;-6.4966004478225985
1.49;0.08534474360095907;-0.1826024795190792;-6.3083257835878985
1.5;0.08362796315070922;-0.2544848333285142;-6.190663238047747
1.51;0.08079154653415876;-0.31269163918989573;-6.045491762781422
1.52;0.0772662276340323;-0.37198228679878104;-5.695397581463618
1.53;0.07262544492538993;-0.4241597825423832;-5.355520444557551
1.54;0.06825242210838278;-0.47896102601397467;-5.0291164867258615
1.55;0.0639024434551125;-0.5246579553764182;-4.6979928464182255
1.56;0.05755790650431509;-0.5721982318800637;-4.241244244471697
1.57;0.05288348054493743;-0.6095525252012055;-3.816776914832274
1.58;0.04620903099042373;-0.6430073514378011;-3.293127405015048
1.59;0.039228939130336614;-0.6661932500695132;-2.791874150521286
1.6;0.03223757944580725;-0.6955965946409252;-2.3156911850366653
1.61;0.024924055480292983;-0.7197886334387144;-1.7682323973964367
1.62;0.018150297958528978;-0.7283707595779825;-1.2082599749638268
1.6300000000000001;0.011550824965756358;-0.7435959027387103;-0.7009486347074219
1.6400000000000001;0.0027096369283183923;-0.750940087816893;-0.08350072029342816
1.6500000000000001;-0.0043461869684839;-0.7366377997584105;0.5181752843465107
1.6600000000000001;-0.01061866844976386;-0.7353629314788994;1.0068076572516533
1.67;-0.018866339943833434;-0.726363363731518;1.3690163244781117
1.68;-0.02601572868917866;-0.7082521071225685;2.057076802250646
1.69;-0.03307617163448919;-0.685217406103556;2.6527133211566074
1.7;-0.040228838011469197;-0.6619579690577494;3.0279098135714384
1.71;-0.04600738044921582;-0.6209924704270477;3.52376009428065
1.72;-0.051596836373232105;-0.5826277319572433;3.9501863685014666
1.73;-0.0571118001472506;-0.5417138925106909;4.314448322262911
1.74;-0.06307109899662762;-0.4981507031847661;4.738128695202279
1.75;-0.06758723729483673;-0.4495990321368694;4.950376444985564
1.76;-0.0726710297670886;-0.40032963930157167;5.347020141284149
1.77;-0.075539554729792;-0.3408421915954184;5.662588964685223
1.78;-0.07936088535227592;-0.282763281567869;5.841762353425635
1.79;-0.08212331069281577;-0.2336208262457546;6.06792741263569
1.8;-0.08404144710941422;-0.1661484128700929;6.292321154242408
1.81;-0.08503373453513315;-0.10655396481592362;6.359219254024456
1.82;-0.08591873004115423;-0.038267387964302235;6.4116835661350375
1.83;-0.08466601430073149;0.026144179506965303;6.330527272038345
1.84;-0.08560864918192664;0.08701332525216829;6.286828492600874
1.85;-0.08374639641828867;0.15449772615768056;6.215938632667993
1.86;-0.08268761062961649;0.2131741028765;6.147166506158128
1.87;-0.08037201753503703;0.2737362266240548;5.886055278333358
1.8800000000000001;-0.07737777599648224;0.3340075435470386;5.630620119655148
1.8900000000000001;-0.07310979610261215;0.38979246770703607;5.316865041747116
1.9000000000000001;-0.06837631096818739;0.44390824446547666;5.019255526522924
1.9100000000000001;-0.06529781010977201;0.4824493707329927;4.70687203830598
1.92;-0.059375613969035276;0.5197617126202494;4.281429239571963
1.93;-0.05434024704557142;0.5815815099798026;3.921567324199531
1.94;-0.04777110826921061;0.613685294416307;3.456998174770083
1.95;-0.04186060918051734;0.640593713231155;2.9919289538036513
1.96;-0.036231344413387274;0.6591245174507199;2.394682556705208
1.97;-0.027247829938714486;0.688393439931219;1.9863046755973495
1.98;-0.020626356144856323;0.7153538130303403;1.4900604816667518
1.99;-0.014797726345421673;0.7262379691352503;0.9075205630344972
2.0;-0.007416776294941073;0.7252584031654533;0.3602202607509574
2.0100000000000002;0.00015929519999325405;0.7321933752310178;-0.18025163964400862
2.02;0.006847179089762911;0.7278236338829325;-0.7044751513132518
2.0300000000000002;0.015135708756472833;0.7127694979126796;-1.182963761386659
2.04;0.020901134090846204;0.6968038216026136;-1.7528314412712112
2.05;0.028911708873970956;0.6769710631281638;-2.202694979826661
2.06;0.03575586149822415;0.6542722609065886;-2.7407032177640716
2.07;0.04163368826704972;0.6169060443480622;-3.160507027534367
2.08;0.04817751831072201;0.5952114088772582;-3.5503899604042575
2.09;0.05279251807736858;0.5556611412511056;-3.948600387556351
2.1;0.05889441166888901;0.5029068419957105;-4.449180627329012
2.11;0.06352586325854255;0.46506430569752016;-4.776187607873179
2.12;0.06820394863104377;0.41938798711538483;-5.078702318591063
2.13;0.07284535717736498;0.3571483622284284;-5.33525337637458
2.14;0.076152697350779;0.30096087074939826;-5.758855315019806
2.15;0.0772296327922388;0.24746439350110208;-5.875701903535042
2.16;0.08030202635196153;0.1888982671602922;-5.941207880847522
2.17;0.08120382442318631;0.1386554740839853;-6.056606790079511
2.18;0.0820264582533219;0.07095590878772359;-6.166138036514752
2.19;0.0830576064801866;0.007611561115317803;-6.239719528977096
2.2;0.08254188018012396;-0.05800800015898984;-6.2239646873169985
2.21;0.08154474988398037;-0.11248041562489382;-6.032205155721004
2.22;0.0806775951092526;-0.16972149365716147;-5.89974055289916
2.23;0.07853207587213673;-0.23700149125223025;-5.8698877819461925
2.24;0.07560407991396877;-0.2812688356908641;-5.620384510955459
2.25;0.07315775921492457;-0.3475493095421835;-5.408869705947808
2.2600000000000002;0.0697166864280761;-0.4012213017046602;-5.162852487050272
2.27;0.06491340065973233;-0.45511763362440566;-4.760996184787173
2.2800000000000002;0.05989459878317015;-0.4935899713070905;-4.480987534866003
2.29;0.05493889614315181;-0.5332106243666234;-4.0154479013506865
2.3000000000000003;0.049836595659897905;-0.5698924737904313;-3.657150666108662
2.31;0.04427936593337818;-0.6065576102480699;-3.1040883134591626
2.32;0.037052313511714084;-0.6349531878156077;-2.639503343318582
2.33;0.031014384800384365;-0.6622214541355874;-2.18642059354058
2.34;0.02454130618085594;-0.6791303070643999;-1.680255244509224
2.35;0.017391910391855524;-0.7011388517898536;-1.2444643674481255
2.36;0.011268035687556419;-0.7183297965029319;-0.6359337266508758
2.37;0.004304010004315626;-0.7128866713061852;-0.13284269313065775
2.38;-0.0035519866452380206;-0.6973103575126497;0.4236323599306103
2.39;-0.011881329139527079;-0.7056526885686206;0.9606757894744751
2.4;-0.018474947937579103;-0.6828883891130173;1.4224872771517836
2.41;-0.02398025913400881;-0.663888357379462;1.87081718656136
2.42;-0.03274707131751204;-0.6498445566823472;2.4256500102359526
2.43;-0.03724235179438693;-0.6203622191543872;2.809675482067025
2.44;-0.04332371120758691;-0.5869275455357045;3.2675661077786393
2.45;-0.049005996488608525;-0.5525229267986992;3.7044723879655916
2.46;-0.05510379169700188;-0.5173377258258237;4.049253492212933
2.47;-0.059903325408980336;-0.4714828765226321;4.540599594547914
2.48;-0.06443427121418953;-0.4303798924211332;4.713794712847957
2.49;-0.06863461596046096;-0.3867150516371799;5.1388354324443055
2.5;-0.07152939203988222;-0.3271352303854739;5.363111609259352
2.5100000000000002;-0.07470087854061662;-0.2842045698228389;5.5708020285791235
2.52;-0.07788673133659348;-0.21809927271943333;5.62656144440378
2.5300000000000002;-0.0790526946745227;-0.16064764597102998;5.817237175460495
2.54;-0.0807790194635004;-0.10195600895295553;5.898196402661138
2.5500000000000003;-0.08115174840347406;-0.03959851913236815;5.936985130422868
2.56;-0.08251318872023727;0.021197544783196208;5.975307646671026
2.57;-0.08105718568845846;0.07868705429732194;5.941651012702474
2.58;-0.08065438066252154;0.13695794690318486;5.771712896691983
2.59;-0.07771941857185445;0.1960265902451899;5.706489659258547
2.6;-0.07594743359256644;0.24874104641343528;5.476884265995105
2.61;-0.07255488303538131;0.3063697214796755;5.3563387239253775
2.62;-0.06937492886836505;0.3633958735829065;5.078400156449588
2.63;-0.06554927984596584;0.4128130956375509;4.812170678220077
2.64;-0.060921036918399674;0.450694904036395;4.393978323997123
2.65;-0.05596510674006654;0.5012643246049102;4.096364249049975
2.66;-0.051851554437831474;0.5334221335777319;3.842306673307811
2.67;-0.045842305411259957;0.56589699703959;3.284752931757347
2.68;-0.0394290333926982;0.6081871978452158;2.830495279297177
2.69;-0.03397196570432723;0.6302358173575374;2.3630292934022363
2.7;-0.02672495347372239;0.6461308286917257;1.9154175621913487
2.71;-0.02107247044245816;0.6703738772862659;1.4221999330139914
2.72;-0.013658862224714246;0.6805807681177013;0.8556058838640322
2.73;-0.006728072383495523;0.6913753494728052;0.418744225163704
2.74;-0.00046061566823395986;0.6923153394182144;-0.0683643080346912
2.75;0.006559011846747841;0.6845936491379626;-0.6705405454496716
2.7600000000000002;0.013322818981359853;0.6724084451229182;-1.1094002654922561
2.77;0.01998383568364808;0.6633068152200213;-1.6412117173444665
2.7800000000000002;0.027022550566664433;0.6507455089504572;-2.1002861936057102
2.79;0.032736619897559445;0.6177753088029918;-2.532373249938351
2.8000000000000003;0.039854736335649815;0.5914913811517364;-2.961342736226816
2.81;0.04450046530385444;0.5655528607212582;-3.331187622825493
2.82;0.050430752416683655;0.5307530564077994;-3.8314846868102617
2.83;0.055399189185215775;0.49541745692072725;-4.179959905285516
2.84;0.06102650617373369;0.44419735427634804;-4.507672520292383
2.85;0.06551832396463891;0.4019739906965287;-4.796200434305789
2.86;0.06865216484045325;0.3441860960119625;-4.988770772270105
2.87;0.07154240561360597;0.2923670250923431;-5.4003592175932065
2.88;0.07432008125984345;0.24239600204752215;-5.49340954693739
2.89;0.07622419552638314;0.17539890630582342;-5.592035787389771
2.9;0.07664089356479487;0.13333948021660394;-5.665456835734507
2.91;0.07792790754790689;0.06323464962777485;-5.792351771983651
2.92;0.07886724523171264;0.016303341882227186;-5.877067320977293
2.93;0.07939251148059334;-0.044126955571024196;-5.799726697554139
2.94;0.07762426134666477;-0.11252186297539615;-5.907694977714304
2.95;0.07750730110757328;-0.15850758314454444;-5.61917220700572
2.96;0.07514021310210971;-0.2225013603492138;-5.495822494674605
2.97;0.07238193306038361;-0.27655635393585415;-5.223565520948617
2.98;0.06966453872447699;-0.3281855148882711;-5.12394327691475
2.99;0.0666522321272931;-0.37780956989337516;-4.895760076650772
3.0;0.06258155590983647;-0.42298757638956985;-4.517598502215456
3.0100000000000002;0.0565638526729387;-0.4667432249720922;-4.203381980629468
3.02;0.05317888239941087;-0.5073560692620048;-3.8523581669075337
